#--------------------------------------------------------------------------
# Transmittance and reflectance of a multilayered film at 
# 0.3 - 1.0 um wavelength range computed by the transfer matrix method. 
#
# The multilayered film consist of:  
#   50 nm   silver
#   500 nm  dielectric (N = 1.5)
#   200 nm  silver
#
# F. Ramirez 2022
#--------------------------------------------------------------------------
# column 1: wavelength (um)
# column 2: Reflectance
# column 3: Transmittance
#
0.200000 0.290627 0.000000
0.200901 0.291689 0.000000
0.201802 0.291386 0.000000
0.202703 0.290032 0.000000
0.203604 0.287993 0.000000
0.204505 0.285590 0.000000
0.205405 0.283053 0.000000
0.206306 0.280533 0.000000
0.207207 0.278120 0.000000
0.208108 0.275863 0.000000
0.209009 0.273774 0.000000
0.209910 0.271734 0.000000
0.210811 0.269901 0.000000
0.211712 0.268265 0.000000
0.212613 0.266823 0.000000
0.213514 0.265575 0.000000
0.214414 0.264528 0.000000
0.215315 0.263694 0.000000
0.216216 0.263096 0.000000
0.217117 0.262766 0.000000
0.218018 0.262743 0.000000
0.218919 0.263101 0.000000
0.219820 0.263893 0.000000
0.220721 0.265189 0.000000
0.221622 0.267058 0.000000
0.222523 0.269555 0.000000
0.223423 0.272701 0.000000
0.224324 0.276460 0.000000
0.225225 0.280708 0.000000
0.226126 0.285222 0.000000
0.227027 0.289680 0.000000
0.227928 0.294012 0.000000
0.228829 0.297588 0.000000
0.229730 0.300118 0.000000
0.230631 0.301496 0.000000
0.231532 0.301765 0.000000
0.232432 0.301083 0.000000
0.233333 0.299660 0.000000
0.234234 0.297718 0.000000
0.235135 0.295451 0.000000
0.236036 0.293016 0.000000
0.236937 0.290551 0.000000
0.237838 0.288140 0.000000
0.238739 0.285831 0.000000
0.239640 0.283654 0.000000
0.240541 0.281624 0.000000
0.241441 0.279749 0.000000
0.242342 0.278031 0.000000
0.243243 0.276470 0.000000
0.244144 0.275063 0.000000
0.245045 0.273811 0.000000
0.245946 0.272382 0.000000
0.246847 0.270985 0.000000
0.247748 0.269742 0.000000
0.248649 0.268661 0.000000
0.249550 0.267750 0.000000
0.250450 0.267023 0.000000
0.251351 0.266495 0.000000
0.252252 0.266187 0.000000
0.253153 0.266122 0.000000
0.254054 0.266328 0.000000
0.254955 0.266719 0.000000
0.255856 0.267384 0.000000
0.256757 0.268421 0.000000
0.257658 0.269866 0.000000
0.258559 0.271750 0.000000
0.259459 0.274097 0.000000
0.260360 0.276915 0.000000
0.261261 0.280191 0.000000
0.262162 0.283885 0.000000
0.263063 0.287920 0.000000
0.263964 0.291605 0.000000
0.264865 0.294946 0.000000
0.265766 0.298220 0.000000
0.266667 0.301246 0.000000
0.267568 0.303851 0.000000
0.268468 0.305892 0.000000
0.269369 0.307267 0.000001
0.270270 0.307923 0.000001
0.271171 0.307857 0.000001
0.272072 0.307106 0.000001
0.272973 0.305443 0.000001
0.273874 0.302954 0.000001
0.274775 0.300052 0.000001
0.275676 0.296822 0.000001
0.276577 0.293339 0.000001
0.277477 0.289671 0.000001
0.278378 0.285876 0.000001
0.279279 0.282001 0.000001
0.280180 0.278083 0.000001
0.281081 0.274155 0.000001
0.281982 0.269795 0.000001
0.282883 0.264763 0.000001
0.283784 0.259733 0.000002
0.284685 0.254718 0.000002
0.285586 0.249729 0.000002
0.286486 0.244777 0.000002
0.287387 0.239871 0.000003
0.288288 0.235020 0.000003
0.289189 0.230234 0.000003
0.290090 0.225521 0.000004
0.290991 0.220282 0.000005
0.291892 0.213769 0.000006
0.292793 0.207306 0.000008
0.293694 0.200913 0.000009
0.294595 0.194612 0.000012
0.295495 0.188425 0.000015
0.296396 0.182377 0.000019
0.297297 0.176490 0.000024
0.298198 0.170791 0.000030
0.299099 0.165304 0.000038
0.300000 0.159670 0.000049
0.300901 0.153018 0.000066
0.301802 0.146667 0.000090
0.302703 0.140650 0.000122
0.303604 0.134993 0.000166
0.304505 0.129710 0.000227
0.305405 0.124810 0.000310
0.306306 0.120290 0.000423
0.307207 0.116137 0.000578
0.308108 0.112328 0.000792
0.309009 0.109395 0.001071
0.309910 0.110595 0.001340
0.310811 0.113182 0.001679
0.311712 0.117364 0.002105
0.312613 0.123380 0.002643
0.313514 0.131518 0.003321
0.314414 0.142126 0.004178
0.315315 0.155634 0.005261
0.316216 0.172590 0.006629
0.317117 0.193701 0.008353
0.318018 0.220268 0.010339
0.318919 0.257876 0.009791
0.319820 0.300147 0.009098
0.320721 0.346811 0.008285
0.321622 0.397200 0.007390
0.322523 0.450193 0.006463
0.323423 0.504294 0.005555
0.324324 0.557839 0.004711
0.325225 0.609254 0.003960
0.326126 0.657264 0.003318
0.327027 0.700984 0.002786
0.327928 0.718152 0.002308
0.328829 0.730733 0.001950
0.329730 0.738878 0.001683
0.330631 0.741918 0.001486
0.331532 0.738703 0.001343
0.332432 0.727363 0.001244
0.333333 0.704972 0.001182
0.334234 0.667076 0.001152
0.335135 0.607276 0.001149
0.336036 0.517605 0.001166
0.336937 0.401838 0.001223
0.337838 0.261451 0.001261
0.338739 0.120415 0.001237
0.339640 0.024302 0.001119
0.340541 0.010287 0.000921
0.341441 0.073415 0.000698
0.342342 0.177222 0.000502
0.343243 0.287650 0.000353
0.344144 0.387130 0.000248
0.345045 0.470561 0.000176
0.345946 0.540159 0.000126
0.346847 0.597001 0.000092
0.347748 0.643324 0.000069
0.348649 0.681396 0.000052
0.349550 0.713024 0.000040
0.350450 0.739598 0.000031
0.351351 0.762177 0.000024
0.352252 0.781566 0.000019
0.353153 0.798381 0.000016
0.354054 0.813096 0.000013
0.354955 0.826433 0.000011
0.355856 0.838423 0.000009
0.356757 0.849163 0.000007
0.357658 0.858841 0.000006
0.358559 0.867611 0.000005
0.359459 0.875599 0.000005
0.360360 0.882908 0.000004
0.361261 0.889623 0.000003
0.362162 0.895817 0.000003
0.363063 0.901549 0.000003
0.363964 0.906432 0.000002
0.364865 0.910734 0.000002
0.365766 0.914740 0.000002
0.366667 0.918482 0.000002
0.367568 0.921986 0.000001
0.368468 0.925275 0.000001
0.369369 0.928369 0.000001
0.370270 0.931285 0.000001
0.371171 0.934040 0.000001
0.372072 0.936647 0.000001
0.372973 0.939060 0.000001
0.373874 0.941304 0.000001
0.374775 0.943436 0.000001
0.375676 0.945464 0.000001
0.376577 0.947397 0.000001
0.377477 0.949240 0.000001
0.378378 0.951001 0.000001
0.379279 0.952686 0.000001
0.380180 0.954299 0.000000
0.381081 0.955846 0.000000
0.381982 0.957177 0.000000
0.382883 0.958293 0.000000
0.383784 0.959370 0.000000
0.384685 0.960410 0.000000
0.385586 0.961416 0.000000
0.386486 0.962390 0.000000
0.387387 0.963333 0.000000
0.388288 0.964249 0.000000
0.389189 0.965137 0.000000
0.390090 0.965999 0.000000
0.390991 0.966681 0.000000
0.391892 0.967113 0.000000
0.392793 0.967539 0.000000
0.393694 0.967958 0.000000
0.394595 0.968368 0.000000
0.395495 0.968765 0.000000
0.396396 0.969145 0.000000
0.397297 0.969499 0.000000
0.398198 0.969819 0.000000
0.399099 0.970090 0.000000
0.400000 0.970388 0.000001
0.400901 0.970799 0.000001
0.401802 0.971058 0.000001
0.402703 0.971105 0.000001
0.403604 0.970846 0.000001
0.404505 0.970133 0.000001
0.405405 0.968723 0.000001
0.406306 0.966209 0.000001
0.407207 0.961862 0.000001
0.408108 0.954312 0.000002
0.409009 0.940722 0.000002
0.409910 0.914593 0.000003
0.410811 0.860403 0.000005
0.411712 0.735344 0.000009
0.412613 0.433996 0.000017
0.413514 0.020938 0.000026
0.414414 0.204856 0.000018
0.415315 0.536609 0.000009
0.416216 0.710517 0.000005
0.417117 0.798073 0.000003
0.418018 0.846703 0.000002
0.418919 0.876299 0.000001
0.419820 0.895707 0.000001
0.420721 0.909207 0.000001
0.421622 0.919042 0.000000
0.422523 0.926479 0.000000
0.423423 0.932275 0.000000
0.424324 0.936906 0.000000
0.425225 0.940687 0.000000
0.426126 0.943829 0.000000
0.427027 0.946484 0.000000
0.427928 0.948806 0.000000
0.428829 0.950814 0.000000
0.429730 0.952568 0.000000
0.430631 0.954116 0.000000
0.431532 0.955493 0.000000
0.432432 0.956727 0.000000
0.433333 0.957840 0.000000
0.434234 0.958851 0.000000
0.435135 0.959774 0.000000
0.436036 0.960621 0.000000
0.436937 0.961427 0.000000
0.437838 0.962174 0.000000
0.438739 0.962869 0.000000
0.439640 0.963517 0.000000
0.440541 0.964123 0.000000
0.441441 0.964693 0.000000
0.442342 0.965229 0.000000
0.443243 0.965736 0.000000
0.444144 0.966215 0.000000
0.445045 0.966670 0.000000
0.445946 0.967144 0.000000
0.446847 0.967600 0.000000
0.447748 0.968036 0.000000
0.448649 0.968452 0.000000
0.449550 0.968851 0.000000
0.450450 0.969233 0.000000
0.451351 0.969601 0.000000
0.452252 0.969954 0.000000
0.453153 0.970294 0.000000
0.454054 0.970622 0.000000
0.454955 0.970936 0.000000
0.455856 0.971237 0.000000
0.456757 0.971529 0.000000
0.457658 0.971812 0.000000
0.458559 0.972085 0.000000
0.459459 0.972351 0.000000
0.460360 0.972608 0.000000
0.461261 0.972859 0.000000
0.462162 0.973102 0.000000
0.463063 0.973339 0.000000
0.463964 0.973567 0.000000
0.464865 0.973788 0.000000
0.465766 0.974004 0.000000
0.466667 0.974214 0.000000
0.467568 0.974419 0.000000
0.468468 0.974620 0.000000
0.469369 0.974816 0.000000
0.470270 0.975008 0.000000
0.471171 0.975196 0.000000
0.472072 0.975380 0.000000
0.472973 0.975584 0.000000
0.473874 0.975797 0.000000
0.474775 0.976005 0.000000
0.475676 0.976209 0.000000
0.476577 0.976410 0.000000
0.477477 0.976606 0.000000
0.478378 0.976799 0.000000
0.479279 0.976989 0.000000
0.480180 0.977176 0.000000
0.481081 0.977359 0.000000
0.481982 0.977554 0.000000
0.482883 0.977758 0.000000
0.483784 0.977959 0.000000
0.484685 0.978156 0.000000
0.485586 0.978350 0.000000
0.486486 0.978541 0.000000
0.487387 0.978729 0.000000
0.488288 0.978914 0.000000
0.489189 0.979097 0.000000
0.490090 0.979277 0.000000
0.490991 0.979455 0.000000
0.491892 0.979629 0.000000
0.492793 0.979801 0.000000
0.493694 0.979971 0.000000
0.494595 0.980138 0.000000
0.495495 0.980304 0.000000
0.496396 0.980469 0.000000
0.497297 0.980631 0.000000
0.498198 0.980792 0.000000
0.499099 0.980952 0.000000
0.500000 0.981109 0.000000
0.500901 0.981264 0.000000
0.501802 0.981418 0.000000
0.502703 0.981570 0.000000
0.503604 0.981721 0.000000
0.504505 0.981872 0.000000
0.505405 0.982022 0.000000
0.506306 0.982171 0.000000
0.507207 0.982319 0.000000
0.508108 0.982467 0.000000
0.509009 0.982616 0.000000
0.509910 0.982765 0.000000
0.510811 0.982915 0.000000
0.511712 0.983064 0.000000
0.512613 0.983213 0.000000
0.513514 0.983362 0.000000
0.514414 0.983511 0.000000
0.515315 0.983659 0.000000
0.516216 0.983808 0.000000
0.517117 0.983957 0.000000
0.518018 0.984109 0.000000
0.518919 0.984270 0.000000
0.519820 0.984430 0.000000
0.520721 0.984590 0.000000
0.521622 0.984749 0.000000
0.522523 0.984907 0.000000
0.523423 0.985064 0.000000
0.524324 0.985219 0.000000
0.525225 0.985372 0.000000
0.526126 0.985521 0.000000
0.527027 0.985666 0.000000
0.527928 0.985804 0.000000
0.528829 0.985934 0.000000
0.529730 0.986052 0.000000
0.530631 0.986154 0.000000
0.531532 0.986235 0.000000
0.532432 0.986285 0.000000
0.533333 0.986295 0.000000
0.534234 0.986246 0.000000
0.535135 0.986114 0.000000
0.536036 0.985865 0.000000
0.536937 0.985455 0.000000
0.537838 0.984782 0.000000
0.538739 0.983702 0.000000
0.539640 0.981969 0.000000
0.540541 0.979143 0.000000
0.541441 0.974376 0.000000
0.542342 0.965908 0.000000
0.543243 0.949652 0.000000
0.544144 0.914710 0.000000
0.545045 0.826358 0.000001
0.545946 0.559255 0.000001
0.546847 0.076649 0.000002
0.547748 0.414360 0.000001
0.548649 0.720376 0.000001
0.549550 0.838595 0.000000
0.550450 0.891261 0.000000
0.551351 0.918891 0.000000
0.552252 0.935228 0.000000
0.553153 0.945758 0.000000
0.554054 0.952996 0.000000
0.554955 0.958223 0.000000
0.555856 0.962147 0.000000
0.556757 0.965187 0.000000
0.557658 0.967605 0.000000
0.558559 0.969568 0.000000
0.559459 0.971193 0.000000
0.560360 0.972560 0.000000
0.561261 0.973724 0.000000
0.562162 0.974729 0.000000
0.563063 0.975605 0.000000
0.563964 0.976386 0.000000
0.564865 0.977080 0.000000
0.565766 0.977699 0.000000
0.566667 0.978255 0.000000
0.567568 0.978758 0.000000
0.568468 0.979216 0.000000
0.569369 0.979634 0.000000
0.570270 0.980018 0.000000
0.571171 0.980373 0.000000
0.572072 0.980701 0.000000
0.572973 0.981007 0.000000
0.573874 0.981292 0.000000
0.574775 0.981559 0.000000
0.575676 0.981810 0.000000
0.576577 0.982046 0.000000
0.577477 0.982269 0.000000
0.578378 0.982480 0.000000
0.579279 0.982680 0.000000
0.580180 0.982870 0.000000
0.581081 0.983051 0.000000
0.581982 0.983225 0.000000
0.582883 0.983392 0.000000
0.583784 0.983552 0.000000
0.584685 0.983705 0.000000
0.585586 0.983852 0.000000
0.586486 0.983993 0.000000
0.587387 0.984129 0.000000
0.588288 0.984260 0.000000
0.589189 0.984387 0.000000
0.590090 0.984509 0.000000
0.590991 0.984643 0.000000
0.591892 0.984785 0.000000
0.592793 0.984923 0.000000
0.593694 0.985056 0.000000
0.594595 0.985186 0.000000
0.595495 0.985312 0.000000
0.596396 0.985434 0.000000
0.597297 0.985553 0.000000
0.598198 0.985669 0.000000
0.599099 0.985782 0.000000
0.600000 0.985892 0.000000
0.600901 0.986000 0.000000
0.601802 0.986105 0.000000
0.602703 0.986208 0.000000
0.603604 0.986308 0.000000
0.604505 0.986406 0.000000
0.605405 0.986502 0.000000
0.606306 0.986596 0.000000
0.607207 0.986688 0.000000
0.608108 0.986778 0.000000
0.609009 0.986866 0.000000
0.609910 0.986952 0.000000
0.610811 0.987036 0.000000
0.611712 0.987119 0.000000
0.612613 0.987200 0.000000
0.613514 0.987280 0.000000
0.614414 0.987358 0.000000
0.615315 0.987434 0.000000
0.616216 0.987510 0.000000
0.617117 0.987584 0.000000
0.618018 0.987653 0.000000
0.618919 0.987712 0.000000
0.619820 0.987770 0.000000
0.620721 0.987827 0.000000
0.621622 0.987883 0.000000
0.622523 0.987938 0.000000
0.623423 0.987992 0.000000
0.624324 0.988045 0.000000
0.625225 0.988097 0.000000
0.626126 0.988148 0.000000
0.627027 0.988198 0.000000
0.627928 0.988245 0.000000
0.628829 0.988292 0.000000
0.629730 0.988338 0.000000
0.630631 0.988383 0.000000
0.631532 0.988427 0.000000
0.632432 0.988471 0.000000
0.633333 0.988514 0.000000
0.634234 0.988556 0.000000
0.635135 0.988598 0.000000
0.636036 0.988639 0.000000
0.636937 0.988680 0.000000
0.637838 0.988720 0.000000
0.638739 0.988759 0.000000
0.639640 0.988798 0.000000
0.640541 0.988837 0.000000
0.641441 0.988875 0.000000
0.642342 0.988912 0.000000
0.643243 0.988950 0.000000
0.644144 0.988986 0.000000
0.645045 0.989022 0.000000
0.645946 0.989060 0.000000
0.646847 0.989098 0.000000
0.647748 0.989135 0.000000
0.648649 0.989171 0.000000
0.649550 0.989207 0.000000
0.650450 0.989243 0.000000
0.651351 0.989278 0.000000
0.652252 0.989313 0.000000
0.653153 0.989347 0.000000
0.654054 0.989381 0.000000
0.654955 0.989421 0.000000
0.655856 0.989461 0.000000
0.656757 0.989500 0.000000
0.657658 0.989539 0.000000
0.658559 0.989578 0.000000
0.659459 0.989616 0.000000
0.660360 0.989653 0.000000
0.661261 0.989690 0.000000
0.662162 0.989727 0.000000
0.663063 0.989763 0.000000
0.663964 0.989799 0.000000
0.664865 0.989835 0.000000
0.665766 0.989870 0.000000
0.666667 0.989905 0.000000
0.667568 0.989940 0.000000
0.668468 0.989974 0.000000
0.669369 0.990007 0.000000
0.670270 0.990041 0.000000
0.671171 0.990074 0.000000
0.672072 0.990107 0.000000
0.672973 0.990140 0.000000
0.673874 0.990172 0.000000
0.674775 0.990204 0.000000
0.675676 0.990235 0.000000
0.676577 0.990267 0.000000
0.677477 0.990298 0.000000
0.678378 0.990329 0.000000
0.679279 0.990359 0.000000
0.680180 0.990390 0.000000
0.681081 0.990420 0.000000
0.681982 0.990451 0.000000
0.682883 0.990482 0.000000
0.683784 0.990513 0.000000
0.684685 0.990544 0.000000
0.685586 0.990574 0.000000
0.686486 0.990605 0.000000
0.687387 0.990634 0.000000
0.688288 0.990664 0.000000
0.689189 0.990694 0.000000
0.690090 0.990723 0.000000
0.690991 0.990756 0.000000
0.691892 0.990790 0.000000
0.692793 0.990824 0.000000
0.693694 0.990858 0.000000
0.694595 0.990891 0.000000
0.695495 0.990925 0.000000
0.696396 0.990957 0.000000
0.697297 0.990990 0.000000
0.698198 0.991023 0.000000
0.699099 0.991055 0.000000
0.700000 0.991086 0.000000
0.700901 0.991118 0.000000
0.701802 0.991149 0.000000
0.702703 0.991180 0.000000
0.703604 0.991211 0.000000
0.704505 0.991242 0.000000
0.705405 0.991272 0.000000
0.706306 0.991302 0.000000
0.707207 0.991332 0.000000
0.708108 0.991362 0.000000
0.709009 0.991392 0.000000
0.709910 0.991421 0.000000
0.710811 0.991451 0.000000
0.711712 0.991480 0.000000
0.712613 0.991509 0.000000
0.713514 0.991537 0.000000
0.714414 0.991566 0.000000
0.715315 0.991594 0.000000
0.716216 0.991623 0.000000
0.717117 0.991651 0.000000
0.718018 0.991679 0.000000
0.718919 0.991707 0.000000
0.719820 0.991734 0.000000
0.720721 0.991762 0.000000
0.721622 0.991789 0.000000
0.722523 0.991817 0.000000
0.723423 0.991844 0.000000
0.724324 0.991871 0.000000
0.725225 0.991898 0.000000
0.726126 0.991925 0.000000
0.727027 0.991952 0.000000
0.727928 0.991981 0.000000
0.728829 0.992009 0.000000
0.729730 0.992038 0.000000
0.730631 0.992066 0.000000
0.731532 0.992095 0.000000
0.732432 0.992123 0.000000
0.733333 0.992151 0.000000
0.734234 0.992179 0.000000
0.735135 0.992207 0.000000
0.736036 0.992235 0.000000
0.736937 0.992263 0.000000
0.737838 0.992291 0.000000
0.738739 0.992320 0.000000
0.739640 0.992348 0.000000
0.740541 0.992376 0.000000
0.741441 0.992404 0.000000
0.742342 0.992432 0.000000
0.743243 0.992460 0.000000
0.744144 0.992488 0.000000
0.745045 0.992516 0.000000
0.745946 0.992543 0.000000
0.746847 0.992571 0.000000
0.747748 0.992599 0.000000
0.748649 0.992627 0.000000
0.749550 0.992654 0.000000
0.750450 0.992682 0.000000
0.751351 0.992710 0.000000
0.752252 0.992737 0.000000
0.753153 0.992765 0.000000
0.754054 0.992793 0.000000
0.754955 0.992821 0.000000
0.755856 0.992848 0.000000
0.756757 0.992876 0.000000
0.757658 0.992904 0.000000
0.758559 0.992932 0.000000
0.759459 0.992960 0.000000
0.760360 0.992988 0.000000
0.761261 0.993017 0.000000
0.762162 0.993045 0.000000
0.763063 0.993074 0.000000
0.763964 0.993102 0.000000
0.764865 0.993131 0.000000
0.765766 0.993160 0.000000
0.766667 0.993189 0.000000
0.767568 0.993218 0.000000
0.768468 0.993247 0.000000
0.769369 0.993276 0.000000
0.770270 0.993306 0.000000
0.771171 0.993336 0.000000
0.772072 0.993366 0.000000
0.772973 0.993396 0.000000
0.773874 0.993427 0.000000
0.774775 0.993458 0.000000
0.775676 0.993489 0.000000
0.776577 0.993520 0.000000
0.777477 0.993551 0.000000
0.778378 0.993583 0.000000
0.779279 0.993615 0.000000
0.780180 0.993646 0.000000
0.781081 0.993678 0.000000
0.781982 0.993710 0.000000
0.782883 0.993742 0.000000
0.783784 0.993774 0.000000
0.784685 0.993806 0.000000
0.785586 0.993838 0.000000
0.786486 0.993870 0.000000
0.787387 0.993901 0.000000
0.788288 0.993932 0.000000
0.789189 0.993962 0.000000
0.790090 0.993991 0.000000
0.790991 0.994019 0.000000
0.791892 0.994046 0.000000
0.792793 0.994071 0.000000
0.793694 0.994093 0.000000
0.794595 0.994113 0.000000
0.795495 0.994128 0.000000
0.796396 0.994138 0.000000
0.797297 0.994141 0.000000
0.798198 0.994137 0.000000
0.799099 0.994121 0.000000
0.800000 0.994091 0.000000
0.800901 0.994043 0.000000
0.801802 0.993971 0.000000
0.802703 0.993868 0.000000
0.803604 0.993722 0.000000
0.804505 0.993518 0.000000
0.805405 0.993234 0.000000
0.806306 0.992839 0.000000
0.807207 0.992283 0.000000
0.808108 0.991489 0.000000
0.809009 0.990335 0.000000
0.809910 0.988610 0.000000
0.810811 0.985940 0.000000
0.811712 0.981607 0.000000
0.812613 0.974110 0.000000
0.813514 0.959937 0.000000
0.814414 0.929501 0.000000
0.815315 0.850809 0.000000
0.816216 0.599255 0.000000
0.817117 0.173369 0.000001
0.818018 0.566561 0.000000
0.818919 0.807689 0.000000
0.819820 0.892904 0.000000
0.820721 0.929873 0.000000
0.821622 0.949008 0.000000
0.822523 0.960207 0.000000
0.823423 0.967360 0.000000
0.824324 0.972232 0.000000
0.825225 0.975718 0.000000
0.826126 0.978310 0.000000
0.827027 0.980316 0.000000
0.827928 0.981917 0.000000
0.828829 0.983200 0.000000
0.829730 0.984246 0.000000
0.830631 0.985114 0.000000
0.831532 0.985844 0.000000
0.832432 0.986466 0.000000
0.833333 0.987001 0.000000
0.834234 0.987465 0.000000
0.835135 0.987872 0.000000
0.836036 0.988231 0.000000
0.836937 0.988550 0.000000
0.837838 0.988835 0.000000
0.838739 0.989091 0.000000
0.839640 0.989323 0.000000
0.840541 0.989534 0.000000
0.841441 0.989726 0.000000
0.842342 0.989902 0.000000
0.843243 0.990063 0.000000
0.844144 0.990213 0.000000
0.845045 0.990351 0.000000
0.845946 0.990479 0.000000
0.846847 0.990599 0.000000
0.847748 0.990710 0.000000
0.848649 0.990815 0.000000
0.849550 0.990913 0.000000
